Force ,Length,Time,Position,Small Length
2.352200,0.0009657,0,0.0009657,0.03146887
2.469008,0.0013653,0.02,0.0013653,0.03146887
2.718657,0.001764899,0.04,0.001764899,0.03146887
2.773626,0.002097899,0.06,0.002097899,0.03146887
2.853789,0.002464199,0.08,0.002464199,0.03146887
2.922500,0.002897101,0.1,0.002897101,0.03146887
3.011823,0.003296699,0.12,0.003296699,0.03146887
3.112599,0.0036963,0.14,0.0036963,0.03146887
3.206504,0.004129199,0.16,0.004129199,0.03146887
3.288957,0.0045621,0.18,0.0045621,0.03146887
3.408056,0.004961699,0.2,0.004961699,0.03146887
3.527155,0.005328,0.22,0.005328,0.03146887
3.618769,0.0057276,0.24,0.0057276,0.03146887
3.696641,0.0061605,0.26,0.0061605,0.03146887
3.765352,0.006593401,0.28,0.006593401,0.03146887
3.868418,0.006992999,0.3,0.006992999,0.03146887
3.996678,0.007325999,0.32,0.007325999,0.03146887
4.113487,0.007658999,0.34,0.007658999,0.03146887
4.175326,0.007991999,0.36,0.007991999,0.03146887
4.207392,0.0083916,0.38,0.0083916,0.03146887
4.287554,0.0087579,0.4,0.0087579,0.03146887
4.376878,0.0090909,0.42,0.0090909,0.03146887
4.443298,0.0094239,0.44,0.0094239,0.03146887
4.541784,0.0097236,0.46,0.0097236,0.03146887
4.633398,0.0100566,0.48,0.0100566,0.03146887
4.697528,0.0104562,0.5,0.0104562,0.03146887
4.770820,0.0108558,0.52,0.0108558,0.03146887
4.846402,0.0111555,0.54,0.0111555,0.03146887
4.921984,0.0115218,0.56,0.0115218,0.03146887
4.997566,0.011988,0.58,0.011988,0.03146887
5.047954,0.0123543,0.6,0.0123543,0.03146887
5.107503,0.0126873,0.62,0.0126873,0.03146887
5.201408,0.0130869,0.64,0.0130869,0.03146887
5.270119,0.0135198,0.66,0.0135198,0.03146887
5.350281,0.0139527,0.68,0.0139527,0.03146887
5.467090,0.0143856,0.7,0.0143856,0.03146887
5.581607,0.0147186,0.72,0.0147186,0.03146887
5.707577,0.0151182,0.74,0.0151182,0.03146887
5.808352,0.0154845,0.76,0.0154845,0.03146887
5.874774,0.0158175,0.78,0.0158175,0.03146887
5.968678,0.0160839,0.8,0.0160839,0.03146887
6.071744,0.0164502,0.82,0.0164502,0.03146887
6.142745,0.0168165,0.84,0.0168165,0.03146887
6.193134,0.0171828,0.86,0.0171828,0.03146887
6.241231,0.0175158,0.88,0.0175158,0.03146887
6.289329,0.0178488,0.9,0.0178488,0.03146887
6.369492,0.0181818,0.92,0.0181818,0.03146887
6.445074,0.0184482,0.94,0.0184482,0.03146887
6.500041,0.0187479,0.96,0.0187479,0.03146887
6.600818,0.0191142,0.98,0.0191142,0.03146887
6.692432,0.0194472,1,0.0194472,0.03146887
6.738239,0.0197802,1.02,0.0197802,0.03146887
6.804660,0.0201132,1.04,0.0201132,0.03146887
6.871080,0.0204129,1.06,0.0204129,0.03146887
6.923759,0.0207459,1.08,0.0207459,0.03146887
7.006212,0.0211122,1.1,0.0211122,0.03146887
7.100116,0.0214785,1.12,0.0214785,0.03146887
7.161956,0.0217782,1.14,0.0217782,0.03146887
7.226086,0.0220779,1.16,0.0220779,0.03146887
7.299378,0.0223443,1.18,0.0223443,0.03146887
7.324572,0.022644,1.2,0.022644,0.03146887
7.329152,0.022977,1.22,0.022977,0.03146887
7.411605,0.0232767,1.24,0.0232767,0.03146887
7.450541,0.0235764,1.26,0.0235764,0.03146887
7.503220,0.0238761,1.28,0.0238761,0.03146887
7.542156,0.0241425,1.3,0.0241425,0.03146887
7.535285,0.0244089,1.32,0.0244089,0.03146887
7.626899,0.0246753,1.34,0.0246753,0.03146887
7.718513,0.0250083,1.36,0.0250083,0.03146887
7.791805,0.0253413,1.38,0.0253413,0.03146887
7.757450,0.0256743,1.4,0.0256743,0.03146887
7.805548,0.0260073,1.42,0.0260073,0.03146887
7.901742,0.0263736,1.44,0.0263736,0.03146887
7.965872,0.0267732,1.46,0.0267732,0.03146887
8.023131,0.0272061,1.48,0.0272061,0.03146887
8.084971,0.0276723,1.5,0.0276723,0.03146887
8.162844,0.0280719,1.52,0.0280719,0.03146887
8.265909,0.0284715,1.54,0.0284715,0.03146887
8.366686,0.0288711,1.56,0.0288711,0.03146887
8.456010,0.0292707,1.58,0.0292707,0.03146887
8.536172,0.029637,1.6,0.029637,0.03146887
8.623206,0.0300699,1.62,0.0300699,0.03146887
8.703368,0.0305028,1.64,0.0305028,0.03146887
8.781240,0.030969,1.66,0.030969,0.03146887
8.861403,0.0313353,1.68,0.0313353,0.03146887
8.943856,0.0317016,1.7,0.0317016,0.03146887
9.046923,0.0320346,1.72,0.0320346,0.03146887
9.136247,0.0323676,1.74,0.0323676,0.03146887
9.209538,0.0327006,1.76,0.0327006,0.03146887
9.264506,0.0330669,1.78,0.0330669,0.03146887
9.308023,0.0333999,1.8,0.0333999,0.03146887
9.374444,0.0337329,1.82,0.0337329,0.03146887
9.452316,0.0340659,1.84,0.0340659,0.03146887
9.514156,0.0344322,1.86,0.0344322,0.03146887
9.564544,0.0347985,1.88,0.0347985,0.03146887
9.614933,0.0350982,1.9,0.0350982,0.03146887
9.676771,0.0354312,1.92,0.0354312,0.03146887
9.738610,0.0356976,1.94,0.0356976,0.03146887
9.766094,0.0359973,1.96,0.0359973,0.03146887
9.762660,0.0362637,1.98,0.0362637,0.03146887
9.795870,0.0365967,2,0.0365967,0.03146887
9.892064,0.0369297,2.02,0.0369297,0.03146887
9.965357,0.0372627,2.04,0.0372627,0.03146887
10.018030,0.0375624,2.06,0.0375624,0.03146887
10.063840,0.0378621,2.08,0.0378621,0.03146887
10.114230,0.0381285,2.1,0.0381285,0.03146887
10.162330,0.0383616,2.12,0.0383616,0.03146887
10.153170,0.0385947,2.14,0.0385947,0.03146887
10.180650,0.0388944,2.16,0.0388944,0.03146887
10.210430,0.0391941,2.18,0.0391941,0.03146887
10.235620,0.0395604,2.2,0.0395604,0.03146887
10.263100,0.0398934,2.22,0.0398934,0.03146887
10.352430,0.0402264,2.24,0.0402264,0.03146887
10.400530,0.0405261,2.26,0.0405261,0.03146887
10.446330,0.0408591,2.28,0.0408591,0.03146887
10.524200,0.0412587,2.3,0.0412587,0.03146887
10.602080,0.0417249,2.32,0.0417249,0.03146887
10.650170,0.0421578,2.34,0.0421578,0.03146887
10.730340,0.0425907,2.36,0.0425907,0.03146887
10.856310,0.0430236,2.38,0.0430236,0.03146887
10.943340,0.0434232,2.4,0.0434232,0.03146887
11.005180,0.0437562,2.42,0.0437562,0.03146887
11.087630,0.0441225,2.44,0.0441225,0.03146887
11.165500,0.0445221,2.46,0.0445221,0.03146887
11.213600,0.0449217,2.48,0.0449217,0.03146887
11.277730,0.0452547,2.5,0.0452547,0.03146887
11.362480,0.0456543,2.52,0.0456543,0.03146887
11.431190,0.0460872,2.54,0.0460872,0.03146887
11.506770,0.0465534,2.56,0.0465534,0.03146887
11.573190,0.046953,2.58,0.046953,0.03146887
11.635030,0.0473193,2.6,0.0473193,0.03146887
11.738100,0.047619,2.62,0.047619,0.03146887
11.827420,0.0478854,2.64,0.0478854,0.03146887
11.852610,0.0480519,2.66,0.0480519,0.03146887
11.842310,0.048285,2.68,0.048285,0.03146887
11.856050,0.0485514,2.7,0.0485514,0.03146887
11.856050,0.0487845,2.72,0.0487845,0.03146887
11.866360,0.0490842,2.74,0.0490842,0.03146887
11.856620,0.0493506,2.76,0.0493506,0.03146887
11.868070,0.049617,2.78,0.049617,0.03146887
11.906440,0.0499167,2.8,0.0499167,0.03146887
11.971710,0.050283,2.82,0.050283,0.03146887
11.936210,0.050616,2.84,0.050616,0.03146887
11.967130,0.0509157,2.86,0.0509157,0.03146887
12.065620,0.0511488,2.88,0.0511488,0.03146887
12.118300,0.0514152,2.9,0.0514152,0.03146887
12.097680,0.0516816,2.92,0.0516816,0.03146887
12.141200,0.0519813,2.94,0.0519813,0.03146887
12.160670,0.0523143,2.96,0.0523143,0.03146887
12.188150,0.0526473,2.98,0.0526473,0.03146887
12.228230,0.0530802,3,0.0530802,0.03146887
12.338170,0.0535131,3.02,0.0535131,0.03146887
12.386270,0.0538794,3.04,0.0538794,0.03146887
12.427490,0.0542457,3.06,0.0542457,0.03146887
12.498500,0.0545787,3.08,0.0545787,0.03146887
12.601560,0.054945,3.1,0.054945,0.03146887
12.667980,0.055278,3.12,0.055278,0.03146887
12.684020,0.0556443,3.14,0.0556443,0.03146887
12.761890,0.0560106,3.16,0.0560106,0.03146887
12.832890,0.0563436,3.18,0.0563436,0.03146887
12.869530,0.0566766,3.2,0.0566766,0.03146887
12.949700,0.0569763,3.22,0.0569763,0.03146887
13.016120,0.0572427,3.24,0.0572427,0.03146887
13.080250,0.0574425,3.26,0.0574425,0.03146887
13.128340,0.057609,3.28,0.057609,0.03146887
13.105440,0.0578754,3.3,0.0578754,0.03146887
13.119180,0.0581751,3.32,0.0581751,0.03146887
13.115750,0.0585081,3.34,0.0585081,0.03146887
13.128340,0.0587412,3.36,0.0587412,0.03146887
13.208510,0.0590409,3.38,0.0590409,0.03146887
13.233700,0.0593406,3.4,0.0593406,0.03146887
13.223390,0.0596403,3.42,0.0596403,0.03146887
13.246300,0.0599067,3.44,0.0599067,0.03146887
13.252020,0.0602064,3.46,0.0602064,0.03146887
13.281800,0.0604395,3.48,0.0604395,0.03146887
13.361960,0.0606726,3.5,0.0606726,0.03146887
13.394030,0.0609723,3.52,0.0609723,0.03146887
13.386010,0.0612387,3.54,0.0612387,0.03146887
13.411200,0.0615051,3.56,0.0615051,0.03146887
13.445560,0.0617715,3.58,0.0617715,0.03146887
13.531450,0.0620712,3.6,0.0620712,0.03146887
13.515420,0.0624042,3.62,0.0624042,0.03146887
13.558930,0.0626706,3.64,0.0626706,0.03146887
13.586420,0.0629703,3.66,0.0629703,0.03146887
13.608170,0.0633033,3.68,0.0633033,0.03146887
13.634510,0.0636363,3.7,0.0636363,0.03146887
13.652840,0.0639693,3.72,0.0639693,0.03146887
13.739870,0.0643689,3.74,0.0643689,0.03146887
13.813160,0.0647019,3.76,0.0647019,0.03146887
13.861260,0.0650016,3.78,0.0650016,0.03146887
13.913940,0.0652347,3.8,0.0652347,0.03146887
13.996390,0.0655011,3.82,0.0655011,0.03146887
14.044490,0.0657342,3.84,0.0657342,0.03146887
14.022730,0.0660672,3.86,0.0660672,0.03146887
14.055940,0.0663336,3.88,0.0663336,0.03146887
14.060520,0.0666,3.9,0.0666,0.03146887
14.068540,0.0668997,3.92,0.0668997,0.03146887
14.078840,0.0671661,3.94,0.0671661,0.03146887
14.096020,0.0674991,3.96,0.0674991,0.03146887
14.123510,0.0678321,3.98,0.0678321,0.03146887
14.148700,0.0681984,4,0.0681984,0.03146887
14.179620,0.0685314,4.02,0.0685314,0.03146887
14.213970,0.068931,4.04,0.068931,0.03146887
14.305590,0.0693639,4.06,0.0693639,0.03146887
14.376590,0.0697635,4.08,0.0697635,0.03146887
14.465910,0.0701298,4.1,0.0701298,0.03146887
14.541500,0.0704961,4.12,0.0704961,0.03146887
14.598760,0.0708957,4.14,0.0708957,0.03146887
14.639980,0.071262,4.16,0.071262,0.03146887
14.690370,0.0716283,4.18,0.0716283,0.03146887
14.747630,0.0719946,4.2,0.0719946,0.03146887
14.816340,0.0723276,4.22,0.0723276,0.03146887
14.873600,0.0726606,4.24,0.0726606,0.03146887
14.854130,0.0729603,4.26,0.0729603,0.03146887
14.897650,0.0732933,4.28,0.0732933,0.03146887
14.928570,0.0736596,4.3,0.0736596,0.03146887
14.952620,0.0739926,4.32,0.0739926,0.03146887
14.999570,0.0742923,4.34,0.0742923,0.03146887
15.095760,0.0746253,4.36,0.0746253,0.03146887
15.141570,0.0748917,4.38,0.0748917,0.03146887
15.185090,0.0751914,4.4,0.0751914,0.03146887
15.173640,0.0754911,4.42,0.0754911,0.03146887
15.191960,0.0757908,4.44,0.0757908,0.03146887
15.224020,0.0760572,4.46,0.0760572,0.03146887
15.295020,0.0763236,4.48,0.0763236,0.03146887
15.274410,0.0765567,4.5,0.0765567,0.03146887
15.312200,0.0767898,4.52,0.0767898,0.03146887
15.338540,0.0770895,4.54,0.0770895,0.03146887
15.364880,0.0773226,4.56,0.0773226,0.03146887
15.387780,0.0775557,4.58,0.0775557,0.03146887
15.407250,0.0777888,4.6,0.0777888,0.03146887
15.417560,0.0779886,4.62,0.0779886,0.03146887
15.431300,0.0782217,4.64,0.0782217,0.03146887
15.439320,0.0785214,4.66,0.0785214,0.03146887
15.449630,0.0788544,4.68,0.0788544,0.03146887
15.457640,0.0791208,4.7,0.0791208,0.03146887
15.483980,0.0793872,4.72,0.0793872,0.03146887
15.563000,0.0797202,4.74,0.0797202,0.03146887
15.544670,0.0800532,4.76,0.0800532,0.03146887
15.579030,0.0803862,4.78,0.0803862,0.03146887
15.606510,0.0807525,4.8,0.0807525,0.03146887
15.682100,0.0811188,4.82,0.0811188,0.03146887
15.670640,0.0814851,4.84,0.0814851,0.03146887
15.706140,0.0818847,4.86,0.0818847,0.03146887
15.819520,0.0823176,4.88,0.0823176,0.03146887
15.936330,0.0827838,4.9,0.0827838,0.03146887
16.011910,0.0832167,4.92,0.0832167,0.03146887
16.078330,0.0836163,4.94,0.0836163,0.03146887
16.172230,0.0840825,4.96,0.0840825,0.03146887
16.259270,0.0844821,4.98,0.0844821,0.03146887
16.325690,0.0848151,5,0.0848151,0.03146887
16.403560,0.0851814,5.02,0.0851814,0.03146887
16.472270,0.0855477,5.04,0.0855477,0.03146887
16.497460,0.0859806,5.06,0.0859806,0.03146887
16.503190,0.0863469,5.08,0.0863469,0.03146887
16.607400,0.0866466,5.1,0.0866466,0.03146887
16.662370,0.086913,5.12,0.086913,0.03146887
16.689850,0.0871794,5.14,0.0871794,0.03146887
16.682980,0.0875457,5.16,0.0875457,0.03146887
16.713900,0.0879786,5.18,0.0879786,0.03146887
16.742530,0.0884115,5.2,0.0884115,0.03146887
16.768870,0.0887778,5.22,0.0887778,0.03146887
16.873080,0.0891441,5.24,0.0891441,0.03146887
16.989890,0.0895104,5.26,0.0895104,0.03146887
17.047150,0.0898101,5.28,0.0898101,0.03146887
17.072340,0.0901098,5.3,0.0901098,0.03146887
17.075780,0.0904095,5.32,0.0904095,0.03146887
17.089520,0.0907425,5.34,0.0907425,0.03146887
17.098680,0.0910755,5.36,0.0910755,0.03146887
17.099830,0.0914418,5.38,0.0914418,0.03146887
17.093530,0.0918081,5.4,0.0918081,0.03146887
17.184570,0.0921411,5.42,0.0921411,0.03146887
17.232670,0.0924741,5.44,0.0924741,0.03146887
17.296800,0.0928071,5.46,0.0928071,0.03146887
17.342610,0.0931401,5.48,0.0931401,0.03146887
17.326570,0.0934398,5.5,0.0934398,0.03146887
17.357490,0.0938061,5.52,0.0938061,0.03146887
17.372380,0.0941391,5.54,0.0941391,0.03146887
17.401010,0.0944721,5.56,0.0944721,0.03146887
17.491480,0.0948051,5.58,0.0948051,0.03146887
17.548740,0.0951714,5.6,0.0951714,0.03146887
17.585380,0.095571,5.62,0.095571,0.03146887
17.581950,0.0959373,5.64,0.0959373,0.03146887
17.615160,0.0963369,5.66,0.0963369,0.03146887
17.725100,0.0967032,5.68,0.0967032,0.03146887
17.839610,0.0971694,5.7,0.0971694,0.03146887
17.855650,0.0976689,5.72,0.0976689,0.03146887
17.844190,0.0981684,5.74,0.0981684,0.03146887
17.886570,0.0986346,5.76,0.0986346,0.03146887
18.032010,0.0990675,5.78,0.0990675,0.03146887
18.148810,0.0994671,5.8,0.0994671,0.03146887
18.231270,0.0998334,5.82,0.0998334,0.03146887
18.293110,0.1001997,5.84,0.1001997,0.03146887
18.329750,0.1005993,5.86,0.1005993,0.03146887
18.316010,0.1009656,5.88,0.1009656,0.03146887
18.357240,0.1013319,5.9,0.1013319,0.03146887
18.441980,0.1016649,5.92,0.1016649,0.03146887
18.496950,0.1019979,5.94,0.1019979,0.03146887
18.565660,0.1023309,5.96,0.1023309,0.03146887
18.600010,0.102564,5.98,0.102564,0.03146887
18.593140,0.1028637,6,0.1028637,0.03146887
18.613760,0.1031634,6.02,0.1031634,0.03146887
18.620630,0.1034631,6.04,0.1034631,0.03146887
18.625210,0.1037628,6.06,0.1037628,0.03146887
18.605170,0.1040292,6.08,0.1040292,0.03146887
18.616620,0.1043289,6.1,0.1043289,0.03146887
18.629220,0.1046286,6.12,0.1046286,0.03146887
18.638380,0.1049283,6.14,0.1049283,0.03146887
18.665290,0.1051947,6.16,0.1051947,0.03146887
18.672160,0.1054611,6.18,0.1054611,0.03146887
18.653840,0.1057275,6.2,0.1057275,0.03146887
18.669300,0.1060272,6.22,0.1060272,0.03146887
18.753470,0.1063269,6.24,0.1063269,0.03146887
18.737440,0.1066266,6.26,0.1066266,0.03146887
18.759190,0.106893,6.28,0.106893,0.03146887
18.768360,0.1071927,6.3,0.1071927,0.03146887
18.766070,0.107559,6.32,0.107559,0.03146887
18.778660,0.1079586,6.34,0.1079586,0.03146887
18.776950,0.1083582,6.36,0.1083582,0.03146887
18.817600,0.1087911,6.38,0.1087911,0.03146887
18.859970,0.109224,6.4,0.109224,0.03146887
18.948150,0.1096902,6.42,0.1096902,0.03146887
18.996250,0.1101564,6.44,0.1101564,0.03146887
19.080990,0.1106226,6.46,0.1106226,0.03146887
19.202380,0.1110555,6.48,0.1110555,0.03146887
19.282540,0.1115217,6.5,0.1115217,0.03146887
19.342090,0.1120212,6.52,0.1120212,0.03146887
19.390190,0.1124541,6.54,0.1124541,0.03146887
19.426830,0.1128537,6.56,0.1128537,0.03146887
19.513870,0.11322,6.58,0.11322,0.03146887
19.591740,0.1135863,6.6,0.1135863,0.03146887
19.632970,0.1139193,6.62,0.1139193,0.03146887
19.683360,0.1142523,6.64,0.1142523,0.03146887
19.715420,0.1145853,6.66,0.1145853,0.03146887
19.705110,0.114885,6.68,0.114885,0.03146887
19.728020,0.1152513,6.7,0.1152513,0.03146887
19.742900,0.115551,6.72,0.115551,0.03146887
19.748630,0.1158174,6.74,0.1158174,0.03146887
19.754360,0.1161171,6.76,0.1161171,0.03146887
19.738330,0.1164168,6.78,0.1164168,0.03146887
19.746340,0.1167165,6.8,0.1167165,0.03146887
19.758360,0.1170495,6.82,0.1170495,0.03146887
19.769240,0.1173492,6.84,0.1173492,0.03146887
19.813910,0.1176489,6.86,0.1176489,0.03146887
19.829940,0.1179819,6.88,0.1179819,0.03146887
19.841390,0.1183482,6.9,0.1183482,0.03146887
19.868870,0.1186479,6.92,0.1186479,0.03146887
19.930710,0.1189476,6.94,0.1189476,0.03146887
19.923840,0.119214,6.96,0.119214,0.03146887
19.957050,0.1195137,6.98,0.1195137,0.03146887
19.975380,0.1198134,7,0.1198134,0.03146887
19.989120,0.1201131,7.02,0.1201131,0.03146887
20.012020,0.1204461,7.04,0.1204461,0.03146887
20.023470,0.1207791,7.06,0.1207791,0.03146887
20.033780,0.1210788,7.08,0.1210788,0.03146887
20.063550,0.1213452,7.1,0.1213452,0.03146887
20.077300,0.1215783,7.12,0.1215783,0.03146887
20.092180,0.1219113,7.14,0.1219113,0.03146887
20.101350,0.1223109,7.16,0.1223109,0.03146887
20.083020,0.1227438,7.18,0.1227438,0.03146887
20.092180,0.1230768,7.2,0.1230768,0.03146887
20.180360,0.1234098,7.22,0.1234098,0.03146887
20.242200,0.1237428,7.24,0.1237428,0.03146887
20.262820,0.1241424,7.26,0.1241424,0.03146887
20.271980,0.1246086,7.28,0.1246086,0.03146887
20.299460,0.1250748,7.3,0.1250748,0.03146887
20.336110,0.1254744,7.32,0.1254744,0.03146887
20.443750,0.1258407,7.34,0.1258407,0.03146887
20.494140,0.126207,7.36,0.126207,0.03146887
20.478110,0.1265733,7.38,0.1265733,0.03146887
20.526210,0.1269729,7.4,0.1269729,0.03146887
20.608660,0.1273392,7.42,0.1273392,0.03146887
20.592630,0.1277055,7.44,0.1277055,0.03146887
20.638430,0.1280052,7.46,0.1280052,0.03146887
20.725470,0.1283049,7.48,0.1283049,0.03146887
20.706000,0.1285713,7.5,0.1285713,0.03146887
20.722030,0.128871,7.52,0.128871,0.03146887
20.714020,0.1291707,7.54,0.1291707,0.03146887
20.694550,0.1294704,7.56,0.1294704,0.03146887
20.711730,0.1297701,7.58,0.1297701,0.03146887
20.724320,0.1300698,7.6,0.1300698,0.03146887
20.733480,0.1304361,7.62,0.1304361,0.03146887
20.759820,0.1308357,7.64,0.1308357,0.03146887
20.772420,0.1311687,7.66,0.1311687,0.03146887
20.806780,0.1315017,7.68,0.1315017,0.03146887
20.883500,0.131868,7.7,0.131868,0.03146887
20.876630,0.1321677,7.72,0.1321677,0.03146887
20.908700,0.1325007,7.74,0.1325007,0.03146887
20.921300,0.1327005,7.76,0.1327005,0.03146887
20.932740,0.132867,7.78,0.132867,0.03146887
20.939620,0.1330002,7.8,0.1330002,0.03146887
20.927590,0.1332,7.82,0.1332,0.03146887
20.925300,0.1334331,7.84,0.1334331,0.03146887
20.844570,0.1336995,7.86,0.1336995,0.03146887
20.817080,0.1340991,7.88,0.1340991,0.03146887
20.821660,0.1344654,7.9,0.1344654,0.03146887
20.820520,0.1347651,7.92,0.1347651,0.03146887
20.828530,0.1350315,7.94,0.1350315,0.03146887
20.854300,0.1352979,7.96,0.1352979,0.03146887
20.882360,0.1355643,7.98,0.1355643,0.03146887
20.959090,0.1359639,8,0.1359639,0.03146887
20.927020,0.1362969,8.02,0.1362969,0.03146887
20.944200,0.1366299,8.04,0.1366299,0.03146887
20.954510,0.1370295,8.06,0.1370295,0.03146887
21.011760,0.1374291,8.08,0.1374291,0.03146887
20.996880,0.1378287,8.1,0.1378287,0.03146887
21.035810,0.138195,8.12,0.138195,0.03146887
21.063300,0.1385613,8.14,0.1385613,0.03146887
21.140020,0.1389276,8.16,0.1389276,0.03146887
21.217900,0.1392606,8.18,0.1392606,0.03146887
21.282030,0.139527,8.2,0.139527,0.03146887
21.343870,0.1398267,8.22,0.1398267,0.03146887
21.378220,0.140193,8.24,0.140193,0.03146887
21.355320,0.140526,8.26,0.140526,0.03146887
21.375930,0.1407924,8.28,0.1407924,0.03146887
21.389670,0.1410921,8.3,0.1410921,0.03146887
21.405700,0.1413918,8.32,0.1413918,0.03146887
21.436620,0.1416249,8.34,0.1416249,0.03146887
21.466400,0.1418913,8.36,0.1418913,0.03146887
21.480140,0.142191,8.38,0.142191,0.03146887
21.490450,0.142524,8.4,0.142524,0.03146887
21.489300,0.142857,8.42,0.142857,0.03146887
21.477280,0.1431567,8.44,0.1431567,0.03146887
21.498460,0.1434564,8.46,0.1434564,0.03146887
21.609550,0.1437561,8.48,0.1437561,0.03146887
21.578630,0.1439892,8.5,0.1439892,0.03146887
21.599240,0.1442889,8.52,0.1442889,0.03146887
21.590080,0.1445886,8.54,0.1445886,0.03146887
21.592370,0.144855,8.56,0.144855,0.03146887
