Force ,Length,Time,Position,Small Length
5.389217,0.0098901,0,0.0098901,0.03146887
6.067164,0.0121545,0.02,0.0121545,0.03146887
6.694723,0.0145521,0.04,0.0145521,0.03146887
7.303958,0.0170496,0.06,0.0170496,0.03146887
7.894871,0.019647,0.08,0.019647,0.03146887
8.52701,0.0223443,0.1,0.0223443,0.03146887
9.131665,0.0251415,0.12,0.0251415,0.03146887
9.782128,0.0280719,0.14,0.0280719,0.03146887
10.49214,0.0311022,0.16,0.0311022,0.03146887
11.2617,0.0343323,0.18,0.0343323,0.03146887
12.01294,0.0375957,0.2,0.0375957,0.03146887
12.7825,0.0410589,0.22,0.0410589,0.03146887
13.5429,0.0445554,0.24,0.0445554,0.03146887
14.23917,0.0481851,0.26,0.0481851,0.03146887
14.99041,0.0519147,0.28,0.0519147,0.03146887
15.75997,0.05587739,0.3,0.05587739,0.03146887
16.4883,0.0601398,0.32,0.0601398,0.03146887
17.30825,0.0643023,0.34,0.0643023,0.03146887
18.13736,0.06823169,0.36,0.06823169,0.03146887
18.87486,0.07209449,0.38,0.07209449,0.03146887
19.56655,0.0756909,0.4,0.0756909,0.03146887
20.19411,0.07895429,0.42,0.07895429,0.03146887
20.70256,0.0820179,0.44,0.0820179,0.03146887
21.13773,0.08494829,0.46,0.08494829,0.03146887
21.47213,0.0877455,0.48,0.0877455,0.03146887
21.77903,0.09034289,0.5,0.09034289,0.03146887
22.14549,0.09280709,0.52,0.09280709,0.03146887
22.43408,0.0954045,0.54,0.0954045,0.03146887
22.71808,0.09826829,0.56,0.09826829,0.03146887
22.93796,0.1012653,0.58,0.1012653,0.03146887
23.27235,0.1043622,0.6,0.1043622,0.03146887
23.69835,0.1074591,0.62,0.1074591,0.03146887
24.14269,0.1108224,0.64,0.1108224,0.03146887
24.54121,0.1143522,0.66,0.1143522,0.03146887
24.99928,0.117882,0.68,0.117882,0.03146887
25.46651,0.1213785,0.7,0.1213785,0.03146887
25.94291,0.1250415,0.72,0.1250415,0.03146887
26.35975,0.1286379,0.74,0.1286379,0.03146887
26.73079,0.1322343,0.76,0.1322343,0.03146887
27.1568,0.1359306,0.78,0.1359306,0.03146887
27.59655,0.1398933,0.8,0.1398933,0.03146887
28.04546,0.1440225,0.82,0.1440225,0.03146887
28.53102,0.1481517,0.84,0.1481517,0.03146887
28.99825,0.152181,0.86,0.152181,0.03146887
29.47923,0.1560771,0.88,0.1560771,0.03146887
29.94646,0.1596735,0.9,0.1596735,0.03146887
30.36788,0.1629702,0.92,0.1629702,0.03146887
30.67021,0.1661337,0.94,0.1661337,0.03146887
30.74121,0.1692972,0.96,0.1692972,0.03146887
30.97254,0.1722609,0.98,0.1722609,0.03146887
31.04125,0.1749249,1,0.1749249,0.03146887
31.16493,0.1775223,1.02,0.1775223,0.03146887
31.25883,0.1803195,1.04,0.1803195,0.03146887
31.31151,0.18315,1.06,0.18315,0.03146887
31.35503,0.1860471,1.08,0.1860471,0.03146887
31.44665,0.1890441,1.1,0.1890441,0.03146887
31.66881,0.1920744,1.12,0.1920744,0.03146887
31.73523,0.195471,1.14,0.195471,0.03146887
32.01694,0.1990674,1.16,0.1990674,0.03146887
32.2872,0.2026971,1.18,0.2026971,0.03146887
32.63534,0.2063934,1.2,0.2063934,0.03146887
33.01096,0.2102895,1.22,0.2102895,0.03146887
33.36367,0.2140857,1.24,0.2140857,0.03146887
33.71639,0.2179152,1.26,0.2179152,0.03146887
34.12865,0.2219112,1.28,0.2219112,0.03146887
34.50428,0.2260404,1.3,0.2260404,0.03146887
34.87531,0.2302695,1.32,0.2302695,0.03146887
35.21429,0.2343321,1.34,0.2343321,0.03146887
35.60823,0.2382615,1.36,0.2382615,0.03146887
36.0434,0.2418246,1.38,0.2418246,0.03146887
36.36405,0.2450547,1.4,0.2450547,0.03146887
36.55186,0.2480517,1.42,0.2480517,0.03146887
36.57705,0.2510154,1.44,0.2510154,0.03146887
36.62973,0.2539125,1.46,0.2539125,0.03146887
36.71218,0.2566764,1.48,0.2566764,0.03146887
36.76715,0.2592738,1.5,0.2592738,0.03146887
36.80379,0.2618379,1.52,0.2618379,0.03146887
36.85876,0.2646018,1.54,0.2646018,0.03146887
36.89541,0.2674323,1.56,0.2674323,0.03146887
36.94351,0.2703294,1.58,0.2703294,0.03146887
37.01909,0.2734263,1.6,0.2734263,0.03146887
37.12674,0.2766897,1.62,0.2766897,0.03146887
37.39929,0.2801196,1.64,0.2801196,0.03146887
37.67871,0.2836827,1.66,0.2836827,0.03146887
37.99936,0.2871126,1.68,0.2871126,0.03146887
38.3246,0.2905425,1.7,0.2905425,0.03146887
38.61318,0.294039,1.72,0.294039,0.03146887
38.85138,0.2974023,1.74,0.2974023,0.03146887
39.08958,0.3007656,1.76,0.3007656,0.03146887
39.35984,0.3041955,1.78,0.3041955,0.03146887
39.56597,0.3078585,1.8,0.3078585,0.03146887
39.76752,0.3117213,1.82,0.3117213,0.03146887
40.04694,0.3155175,1.84,0.3155175,0.03146887
40.35843,0.3191805,1.86,0.3191805,0.03146887
40.69741,0.3227103,1.88,0.3227103,0.03146887
40.99973,0.3260403,1.9,0.3260403,0.03146887
41.26542,0.3292038,1.92,0.3292038,0.03146887
41.45781,0.3323007,1.94,0.3323007,0.03146887
41.51049,0.3352977,1.96,0.3352977,0.03146887
41.61813,0.3381282,1.98,0.3381282,0.03146887
41.73265,0.3407256,2,0.3407256,0.03146887
41.82655,0.3431898,2.02,0.3431898,0.03146887
41.87466,0.3457539,2.04,0.3457539,0.03146887
41.85633,0.3485511,2.06,0.3485511,0.03146887
41.88725,0.3514482,2.08,0.3514482,0.03146887
41.9239,0.3543786,2.1,0.3543786,0.03146887
42.06246,0.3574755,2.12,0.3574755,0.03146887
42.2915,0.3608388,2.14,0.3608388,0.03146887
42.48847,0.3644019,2.16,0.3644019,0.03146887
42.76789,0.3680316,2.18,0.3680316,0.03146887
43.13435,0.371628,2.2,0.371628,0.03146887
43.48707,0.3755241,2.22,0.3755241,0.03146887
43.76649,0.37962,2.24,0.37962,0.03146887
44.08714,0.3838491,2.26,0.3838491,0.03146887
44.4765,0.3883113,2.28,0.3883113,0.03146887
44.97122,0.3928734,2.3,0.3928734,0.03146887
45.43845,0.3974022,2.32,0.3974022,0.03146887
45.90569,0.4017645,2.34,0.4017645,0.03146887
46.34085,0.4061268,2.36,0.4061268,0.03146887
46.73938,0.410256,2.38,0.410256,0.03146887
47.11958,0.413919,2.4,0.413919,0.03146887
47.44481,0.4172157,2.42,0.4172157,0.03146887
47.51581,0.4202793,2.44,0.4202793,0.03146887
47.59368,0.4230099,2.46,0.4230099,0.03146887
47.54787,0.4255407,2.48,0.4255407,0.03146887
47.55933,0.4280049,2.5,0.4280049,0.03146887
47.42878,0.4306023,2.52,0.4306023,0.03146887
47.32571,0.4332663,2.54,0.4332663,0.03146887
47.25013,0.4359636,2.56,0.4359636,0.03146887
47.22036,0.4387275,2.58,0.4387275,0.03146887
47.22952,0.4416912,2.6,0.4416912,0.03146887
47.21463,0.4449879,2.62,0.4449879,0.03146887
47.38526,0.4483845,2.64,0.4483845,0.03146887
47.62804,0.4517478,2.66,0.4517478,0.03146887
47.88914,0.4551444,2.68,0.4551444,0.03146887
48.14566,0.4587741,2.7,0.4587741,0.03146887
48.36553,0.4624371,2.72,0.4624371,0.03146887
48.61747,0.4661334,2.74,0.4661334,0.03146887
48.90606,0.4699629,2.76,0.4699629,0.03146887
49.27252,0.4738923,2.78,0.4738923,0.03146887
49.62981,0.4777884,2.8,0.4777884,0.03146887
50.00085,0.4814847,2.82,0.4814847,0.03146887
50.28944,0.4850478,2.84,0.4850478,0.03146887
50.53222,0.488511,2.86,0.488511,0.03146887
50.69712,0.4917078,2.88,0.4917078,0.03146887
50.75896,0.4946715,2.9,0.4946715,0.03146887
50.87348,0.4974687,2.92,0.4974687,0.03146887
50.94906,0.5002992,2.94,0.5002992,0.03146887
50.97425,0.5030631,2.96,0.5030631,0.03146887
50.94104,0.5056605,2.98,0.5056605,0.03146887
50.8918,0.5081247,3,0.5081247,0.03146887
50.91356,0.5105223,3.02,0.5105223,0.03146887
50.88379,0.5130531,3.04,0.5130531,0.03146887
50.86203,0.5157504,3.06,0.5157504,0.03146887
50.77958,0.5185809,3.08,0.5185809,0.03146887
50.81507,0.5215113,3.1,0.5215113,0.03146887
50.90097,0.5246415,3.12,0.5246415,0.03146887
51.02235,0.5280381,3.14,0.5280381,0.03146887
51.16435,0.5316678,3.16,0.5316678,0.03146887
51.57204,0.5352642,3.18,0.5352642,0.03146887
51.92934,0.5388939,3.2,0.5388939,0.03146887
52.20876,0.5427234,3.22,0.5427234,0.03146887
52.49734,0.5465196,3.24,0.5465196,0.03146887
52.81799,0.5504157,3.26,0.5504157,0.03146887
53.13407,0.5544117,3.28,0.5544117,0.03146887
53.46845,0.5584743,3.3,0.5584743,0.03146887
53.79369,0.5626035,3.32,0.5626035,0.03146887
54.1006,0.5665662,3.34,0.5665662,0.03146887
54.41208,0.570429,3.36,0.570429,0.03146887
54.67318,0.574092,3.38,0.574092,0.03146887
54.92513,0.577422,3.4,0.577422,0.03146887
55.11293,0.5805855,3.42,0.5805855,0.03146887
55.14958,0.5836491,3.44,0.5836491,0.03146887
55.18394,0.5866794,3.46,0.5866794,0.03146887
55.15645,0.58941,3.48,0.58941,0.03146887
55.1576,0.5919075,3.5,0.5919075,0.03146887
55.13584,0.594405,3.52,0.594405,0.03146887
55.09805,0.5971356,3.54,0.5971356,0.03146887
54.96177,0.5999661,3.56,0.5999661,0.03146887
54.87932,0.6028632,3.58,0.6028632,0.03146887
54.92513,0.6058269,3.6,0.6058269,0.03146887
54.90909,0.6089238,3.62,0.6089238,0.03146887
54.98697,0.612387,3.64,0.612387,0.03146887
55.09003,0.6160167,3.66,0.6160167,0.03146887
55.45191,0.619713,3.68,0.619713,0.03146887
55.78172,0.623376,3.7,0.623376,0.03146887
56.10237,0.6271056,3.72,0.6271056,0.03146887
56.34515,0.6308352,3.74,0.6308352,0.03146887
56.57418,0.6347313,3.76,0.6347313,0.03146887
56.84445,0.6388272,3.78,0.6388272,0.03146887
57.10555,0.6430896,3.8,0.6430896,0.03146887
57.38955,0.6471855,3.82,0.6471855,0.03146887
57.71936,0.6511482,3.84,0.6511482,0.03146887
57.89801,0.6550443,3.86,0.6550443,0.03146887
57.94153,0.6586074,3.88,0.6586074,0.03146887
58.03772,0.6619041,3.9,0.6619041,0.03146887
58.09499,0.6649011,3.92,0.6649011,0.03146887
57.77433,0.6679647,3.94,0.6679647,0.03146887
46.48286,0.6712281,3.96,0.6712281,0.03146887
,,,,
,,,,
,,,,
,,,,
,,,,
,,,,
,,,,
,,,,
,,,,
,,,,
,,,,
,,,,
,,,,
,,,,
,,,,
,,,,
,,,,
,,,,
,,,,
,,,,
,,,,
,,,,
,,,,
,,,,
,,,,
,,,,
,,,,
,,,,
,,,,
,,,,
,,,,
,,,,
,,,,
,,,,
,,,,
,,,,
,,,,
,,,,
,,,,
,,,,
,,,,
,,,,
,,,,
,,,,
,,,,
,,,,
,,,,
,,,,
,,,,
,,,,
,,,,
,,,,
,,,,
,,,,
,,,,
,,,,
,,,,
,,,,
,,,,
,,,,
,,,,
,,,,
,,,,
,,,,
,,,,
,,,,
,,,,
,,,,
,,,,
,,,,
,,,,
,,,,
,,,,
,,,,
,,,,
,,,,
,,,,
,,,,
,,,,
,,,,
,,,,
,,,,
,,,,
,,,,
,,,,
,,,,
,,,,
,,,,
,,,,
,,,,
,,,,
,,,,
,,,,
,,,,
,,,,
,,,,
,,,,
,,,,
,,,,
,,,,
,,,,
,,,,
,,,,
,,,,
,,,,
,,,,
,,,,
,,,,
,,,,
,,,,
,,,,
,,,,
,,,,
,,,,
,,,,
,,,,
,,,,
,,,,
,,,,
,,,,
,,,,
,,,,
,,,,
,,,,
,,,,
,,,,
,,,,
,,,,
,,,,
,,,,
,,,,
,,,,
,,,,
,,,,
,,,,
,,,,
,,,,
,,,,
,,,,
,,,,
,,,,
,,,,
,,,,
,,,,
,,,,
,,,,
,,,,
,,,,
,,,,
,,,,
,,,,
,,,,
,,,,
,,,,
,,,,
,,,,
,,,,
,,,,
,,,,
,,,,
,,,,
,,,,
,,,,
,,,,
,,,,
,,,,
,,,,
,,,,
,,,,
,,,,
,,,,
,,,,
,,,,
,,,,
,,,,
,,,,
,,,,
,,,,
,,,,
,,,,
,,,,
,,,,
,,,,
,,,,
,,,,
,,,,
,,,,
,,,,
,,,,
,,,,
,,,,
,,,,
,,,,
,,,,
,,,,
,,,,
,,,,
,,,,
,,,,
,,,,
,,,,
,,,,
,,,,
,,,,
,,,,
,,,,
,,,,
,,,,
,,,,
,,,,
,,,,
,,,,
,,,,
,,,,
,,,,
,,,,
,,,,
,,,,
,,,,
,,,,
,,,,
,,,,
,,,,
,,,,
,,,,
,,,,
,,,,
,,,,
,,,,
,,,,
,,,,
,,,,
,,,,
,,,,
,,,,
,,,,
,,,,
,,,,
,,,,
,,,,
,,,,
,,,,
,,,,
,,,,
,,,,
,,,,
,,,,
,,,,
,,,,
,,,,
,,,,
,,,,
,,,,
,,,,
,,,,
,,,,
,,,,
,,,,
,,,,
,,,,
,,,,
,,,,
,,,,
,,,,
,,,,
,,,,
,,,,
,,,,
,,,,
,,,,
,,,,
,,,,
,,,,
,,,,
,,,,
,,,,
,,,,
,,,,
,,,,
,,,,
,,,,
,,,,
,,,,
,,,,
,,,,
,,,,
,,,,
,,,,
,,,,
,,,,
,,,,
,,,,
,,,,
,,,,
,,,,
,,,,
,,,,
,,,,
,,,,
,,,,
,,,,
,,,,
,,,,
,,,,
,,,,
,,,,
,,,,
,,,,
,,,,
,,,,
,,,,
,,,,
,,,,
,,,,
,,,,
,,,,
,,,,
,,,,
,,,,
,,,,
,,,,
,,,,
,,,,
,,,,
,,,,
,,,,
,,,,
,,,,
,,,,
,,,,
,,,,
,,,,
,,,,
,,,,
,,,,
,,,,
,,,,
,,,,
,,,,
,,,,
,,,,
,,,,
,,,,
,,,,
,,,,
,,,,
,,,,
,,,,
,,,,
,,,,
,,,,
,,,,
,,,,
,,,,
,,,,
,,,,
,,,,
,,,,
,,,,
,,,,
,,,,
,,,,
,,,,
,,,,
,,,,
,,,,
,,,,
,,,,
,,,,
,,,,
,,,,
,,,,
,,,,
,,,,
,,,,
,,,,
,,,,
,,,,
,,,,
,,,,
,,,,
,,,,
,,,,
,,,,
,,,,
,,,,
,,,,
,,,,
,,,,
,,,,
,,,,
,,,,
,,,,
,,,,
,,,,
,,,,
,,,,
,,,,
,,,,
,,,,
,,,,
,,,,
,,,,
,,,,
,,,,
,,,,
,,,,
,,,,
,,,,
,,,,
,,,,
,,,,
,,,,
,,,,
,,,,
,,,,
,,,,
,,,,
,,,,
,,,,
,,,,
,,,,
,,,,
,,,,
,,,,
,,,,
,,,,
,,,,
,,,,
,,,,
,,,,
,,,,
,,,,
,,,,
,,,,
,,,,
,,,,
,,,,
,,,,
,,,,
,,,,
,,,,
,,,,
,,,,
,,,,
,,,,
,,,,
,,,,
,,,,
,,,,
,,,,
,,,,
,,,,
,,,,
,,,,
,,,,
,,,,
,,,,
,,,,
,,,,
,,,,
,,,,
,,,,
,,,,
,,,,
,,,,
,,,,
,,,,
,,,,
,,,,
,,,,
,,,,
,,,,
,,,,
,,,,
,,,,
,,,,
,,,,
,,,,
,,,,
,,,,
,,,,
,,,,
,,,,
,,,,
,,,,
,,,,
,,,,
,,,,
,,,,
,,,,
,,,,
,,,,
,,,,
,,,,
,,,,
,,,,
,,,,
,,,,
,,,,
,,,,
,,,,
,,,,
,,,,
,,,,
,,,,
,,,,
,,,,
,,,,
,,,,
,,,,
,,,,
,,,,
,,,,
,,,,
,,,,
,,,,
,,,,
,,,,
,,,,
,,,,
,,,,
,,,,
,,,,
,,,,
,,,,
,,,,
,,,,
,,,,
,,,,
,,,,
,,,,
,,,,
,,,,
,,,,
,,,,
,,,,
,,,,
,,,,
,,,,
,,,,
,,,,
,,,,
,,,,
,,,,
,,,,
,,,,
,,,,
,,,,
,,,,
,,,,
,,,,
,,,,
,,,,
,,,,
,,,,
,,,,
,,,,
,,,,
,,,,
,,,,
,,,,
,,,,
,,,,
,,,,
,,,,
,,,,
,,,,
,,,,
,,,,
,,,,
,,,,
,,,,
,,,,
,,,,
,,,,
,,,,
,,,,
,,,,
,,,,
,,,,
,,,,
,,,,
,,,,
,,,,
,,,,
,,,,
,,,,
,,,,
,,,,
,,,,
,,,,
,,,,
,,,,
,,,,
,,,,
,,,,
,,,,
,,,,
,,,,
,,,,
,,,,
,,,,
,,,,
,,,,
,,,,
,,,,
,,,,
,,,,
,,,,
,,,,
,,,,
,,,,
,,,,
,,,,
,,,,
,,,,
,,,,
,,,,
,,,,
,,,,
,,,,
,,,,
,,,,
,,,,
,,,,
,,,,
,,,,
,,,,
,,,,
,,,,
,,,,
,,,,
,,,,
,,,,
,,,,
,,,,
,,,,
,,,,
,,,,
,,,,
,,,,
,,,,
,,,,
,,,,
,,,,
,,,,
,,,,
,,,,
,,,,
,,,,
,,,,
,,,,
,,,,
,,,,
,,,,
,,,,
,,,,
,,,,
,,,,
,,,,
,,,,
,,,,
,,,,
,,,,
,,,,
,,,,
,,,,
,,,,
,,,,
,,,,
,,,,
,,,,
,,,,
,,,,
,,,,
,,,,
,,,,
,,,,
,,,,
,,,,
,,,,
,,,,
,,,,
,,,,
,,,,
,,,,
,,,,
,,,,
,,,,
,,,,
,,,,
,,,,
,,,,
,,,,
,,,,
,,,,
,,,,
,,,,
,,,,
,,,,
,,,,
,,,,
,,,,
,,,,
,,,,
,,,,
,,,,
,,,,
,,,,
,,,,
,,,,
,,,,
,,,,
,,,,
,,,,
,,,,
,,,,
,,,,
,,,,
,,,,
,,,,
,,,,
,,,,
,,,,
,,,,
,,,,
,,,,
,,,,
,,,,
,,,,
,,,,
,,,,
,,,,
,,,,
,,,,
,,,,
,,,,
,,,,
,,,,
,,,,
,,,,
,,,,
,,,,
,,,,
,,,,
,,,,
,,,,
,,,,
,,,,
,,,,
,,,,
,,,,
,,,,
,,,,
,,,,
,,,,
,,,,
,,,,
,,,,
,,,,
,,,,
,,,,
,,,,
,,,,
,,,,
,,,,
,,,,
,,,,
,,,,
,,,,
,,,,
,,,,
,,,,
,,,,
,,,,
,,,,
,,,,
,,,,
,,,,
,,,,
,,,,
,,,,
,,,,
,,,,
,,,,
,,,,
,,,,
,,,,
,,,,
,,,,
,,,,
,,,,
,,,,
,,,,
,,,,
,,,,
,,,,
,,,,
,,,,
,,,,
,,,,
,,,,
,,,,
,,,,
,,,,
,,,,
,,,,
,,,,
,,,,
,,,,
,,,,
,,,,
,,,,
,,,,
,,,,
,,,,
,,,,
,,,,
,,,,
,,,,
,,,,
,,,,
,,,,
,,,,
,,,,
,,,,
,,,,
,,,,
,,,,
,,,,
,,,,
,,,,
,,,,
,,,,
,,,,
,,,,
,,,,
,,,,
,,,,
,,,,
,,,,
,,,,
,,,,
,,,,
,,,,
,,,,
,,,,
,,,,
,,,,
,,,,
,,,,
,,,,
,,,,
,,,,
,,,,
,,,,
,,,,
,,,,
,,,,
,,,,
,,,,
,,,,
,,,,
,,,,
,,,,
,,,,
,,,,
,,,,
,,,,
,,,,
,,,,
,,,,
,,,,
,,,,
,,,,
,,,,
,,,,
,,,,
,,,,
,,,,
,,,,
,,,,
,,,,
,,,,
,,,,
,,,,
,,,,
,,,,
,,,,
,,,,
,,,,
,,,,
,,,,
,,,,
,,,,
,,,,
,,,,
,,,,
,,,,
,,,,
,,,,
,,,,
,,,,
,,,,
,,,,
,,,,
,,,,
,,,,
,,,,
,,,,
,,,,
,,,,
,,,,
,,,,
,,,,
,,,,
,,,,
,,,,
,,,,
,,,,
,,,,
,,,,
,,,,
,,,,
,,,,
,,,,
,,,,
,,,,
,,,,
,,,,
,,,,
,,,,
,,,,
,,,,
,,,,
,,,,
,,,,
,,,,
,,,,
,,,,
,,,,
,,,,
,,,,
,,,,
,,,,
,,,,
,,,,
,,,,
,,,,
,,,,
,,,,
,,,,
,,,,
,,,,
,,,,
,,,,
,,,,
,,,,
,,,,
,,,,
,,,,
,,,,
,,,,
,,,,
,,,,
,,,,
,,,,
,,,,
,,,,
,,,,
,,,,
,,,,
,,,,
,,,,
,,,,
,,,,
,,,,
,,,,
,,,,
,,,,
,,,,
,,,,
,,,,
,,,,
,,,,
,,,,
,,,,
,,,,
,,,,
,,,,
,,,,
,,,,
,,,,
,,,,
,,,,
,,,,
,,,,
,,,,
,,,,
,,,,
,,,,
,,,,
,,,,
,,,,
,,,,
,,,,
,,,,
,,,,
,,,,
,,,,
,,,,
,,,,
,,,,
,,,,
,,,,
,,,,
,,,,
,,,,
,,,,
,,,,
,,,,
,,,,
,,,,
,,,,
,,,,
,,,,
,,,,
,,,,
,,,,
,,,,
,,,,
,,,,
,,,,
,,,,
,,,,
,,,,
,,,,
,,,,
,,,,
,,,,
,,,,
,,,,
,,,,
,,,,
,,,,
,,,,
,,,,
,,,,
,,,,
,,,,
,,,,
,,,,
,,,,
,,,,
,,,,
,,,,
,,,,
,,,,
,,,,
,,,,
,,,,
,,,,
,,,,
,,,,
,,,,
,,,,
,,,,
,,,,
,,,,
,,,,
,,,,
,,,,
,,,,
,,,,
,,,,
,,,,
,,,,
,,,,
,,,,
,,,,
,,,,
,,,,
,,,,
,,,,
,,,,
,,,,
,,,,
,,,,
,,,,
,,,,
,,,,
,,,,
,,,,
,,,,
,,,,
,,,,
,,,,
,,,,
,,,,
,,,,
,,,,
,,,,
,,,,
,,,,
,,,,
,,,,
,,,,
,,,,
,,,,
,,,,
,,,,
,,,,
,,,,
,,,,
,,,,
,,,,
,,,,
,,,,
,,,,
,,,,
,,,,
,,,,
,,,,
,,,,
,,,,
,,,,
,,,,
,,,,
,,,,
,,,,
,,,,
,,,,
,,,,
,,,,
,,,,
,,,,
,,,,
,,,,
,,,,
,,,,
,,,,
,,,,
,,,,
,,,,
,,,,
,,,,
,,,,
,,,,
,,,,
,,,,
,,,,
,,,,
,,,,
,,,,
,,,,
,,,,
,,,,
,,,,
,,,,
,,,,
,,,,
,,,,
,,,,
,,,,
,,,,
,,,,
,,,,
,,,,
,,,,
,,,,
,,,,
,,,,
,,,,
,,,,
,,,,
,,,,
,,,,
,,,,
,,,,
,,,,
,,,,
,,,,
,,,,
,,,,
,,,,
,,,,
,,,,
,,,,
,,,,
,,,,
,,,,
,,,,
,,,,
,,,,
,,,,
,,,,
,,,,
,,,,
,,,,
,,,,
,,,,
,,,,
,,,,
,,,,
,,,,
,,,,
,,,,
,,,,
,,,,
,,,,
,,,,
,,,,
,,,,
,,,,
,,,,
,,,,
,,,,
,,,,
,,,,
,,,,
,,,,
,,,,
,,,,
,,,,
,,,,
,,,,
,,,,
,,,,
,,,,
,,,,
,,,,
,,,,
,,,,
,,,,
,,,,
,,,,
,,,,
,,,,
,,,,
,,,,
,,,,
,,,,
,,,,
,,,,
,,,,
,,,,
,,,,
,,,,
,,,,
,,,,
,,,,
,,,,
,,,,
,,,,
,,,,
,,,,
,,,,
,,,,
,,,,
,,,,
,,,,
,,,,
,,,,
,,,,
,,,,
,,,,
,,,,
,,,,
,,,,
,,,,
,,,,
,,,,
,,,,
,,,,
,,,,
,,,,
,,,,
,,,,
,,,,
,,,,
,,,,
,,,,
,,,,
,,,,
,,,,
,,,,
,,,,
,,,,
,,,,
,,,,
,,,,
,,,,
,,,,
,,,,
,,,,
,,,,
,,,,
,,,,
,,,,
,,,,
,,,,
,,,,
,,,,
,,,,
,,,,
,,,,
,,,,
,,,,
,,,,
,,,,
,,,,
,,,,
,,,,
,,,,
,,,,
,,,,
,,,,
,,,,
,,,,
,,,,
,,,,
,,,,
,,,,
,,,,
,,,,
,,,,
,,,,
,,,,
,,,,
,,,,
,,,,
,,,,
,,,,
,,,,
,,,,
,,,,
,,,,
,,,,
,,,,
,,,,
,,,,
,,,,
,,,,
,,,,
,,,,
,,,,
,,,,
,,,,
,,,,
,,,,
,,,,
,,,,
,,,,
,,,,
,,,,
,,,,
,,,,
,,,,
,,,,
,,,,
,,,,
,,,,
,,,,
,,,,
,,,,
,,,,
,,,,
,,,,
,,,,
,,,,
,,,,
,,,,
,,,,
,,,,
,,,,
,,,,
,,,,
,,,,
,,,,
,,,,
,,,,
,,,,
,,,,
,,,,
,,,,
,,,,
,,,,
,,,,
,,,,
,,,,
,,,,
,,,,
,,,,
,,,,
,,,,
,,,,
,,,,
,,,,
,,,,
,,,,
,,,,
,,,,
,,,,
,,,,
,,,,
,,,,
,,,,
,,,,
,,,,
,,,,
,,,,
,,,,
,,,,
,,,,
,,,,
,,,,
,,,,
,,,,
,,,,
,,,,
,,,,
,,,,
,,,,
,,,,
,,,,
,,,,
,,,,
,,,,
,,,,
,,,,
,,,,
,,,,
,,,,
,,,,
,,,,
,,,,
,,,,
,,,,
,,,,
,,,,
,,,,
,,,,
,,,,
,,,,
,,,,
,,,,
,,,,
,,,,
,,,,
,,,,
,,,,
,,,,
,,,,
,,,,
,,,,
,,,,
,,,,
,,,,
,,,,
,,,,
,,,,
,,,,
,,,,
,,,,
,,,,
,,,,
,,,,
,,,,
,,,,
,,,,
,,,,
,,,,
,,,,
,,,,
,,,,
,,,,
,,,,
,,,,
,,,,
,,,,
,,,,
,,,,
,,,,
,,,,
,,,,
,,,,
,,,,
,,,,
,,,,
,,,,
,,,,
,,,,
,,,,
,,,,
,,,,
,,,,
,,,,
,,,,
,,,,
,,,,
,,,,
,,,,
,,,,
,,,,
,,,,
,,,,
,,,,
,,,,
,,,,
,,,,
,,,,
,,,,
,,,,
,,,,
,,,,
,,,,
,,,,
,,,,
,,,,
,,,,
,,,,
,,,,
,,,,
,,,,
,,,,
,,,,
,,,,
,,,,
,,,,
,,,,
,,,,
,,,,
,,,,
,,,,
,,,,
,,,,
,,,,
,,,,
,,,,
,,,,
,,,,
,,,,
,,,,
,,,,
,,,,
,,,,
,,,,
,,,,
,,,,
,,,,
,,,,
,,,,
,,,,
,,,,
,,,,
,,,,
,,,,
,,,,
,,,,
,,,,
,,,,
,,,,
,,,,
,,,,
,,,,
,,,,
,,,,
,,,,
,,,,
,,,,
,,,,
,,,,
,,,,
,,,,
,,,,
,,,,
,,,,
,,,,
,,,,
,,,,
,,,,
,,,,
,,,,
,,,,
,,,,
,,,,
,,,,
,,,,
,,,,
,,,,
,,,,
,,,,
,,,,
,,,,
,,,,
,,,,
,,,,
,,,,
,,,,
,,,,
,,,,
,,,,
,,,,
,,,,
,,,,
,,,,
,,,,
,,,,
,,,,
,,,,
,,,,
,,,,
,,,,
,,,,
,,,,
,,,,
,,,,
,,,,
,,,,
,,,,
,,,,
,,,,
,,,,
,,,,
,,,,
,,,,
,,,,
,,,,
,,,,
,,,,
,,,,
,,,,
,,,,
,,,,
,,,,
,,,,
,,,,
,,,,
,,,,
,,,,
,,,,
,,,,
,,,,
,,,,
,,,,
,,,,
,,,,
,,,,
,,,,
,,,,
,,,,
,,,,
,,,,
,,,,
,,,,
,,,,
,,,,
,,,,
,,,,
,,,,
,,,,
,,,,
,,,,
,,,,
,,,,
,,,,
,,,,
,,,,
,,,,
,,,,
,,,,
,,,,
,,,,
,,,,
,,,,
,,,,
,,,,
,,,,
,,,,
,,,,
,,,,
,,,,
,,,,
,,,,
,,,,
,,,,
,,,,
,,,,
,,,,
,,,,
,,,,
,,,,
,,,,
,,,,
,,,,
,,,,
,,,,
,,,,
,,,,
,,,,
,,,,
,,,,
,,,,
,,,,
,,,,
,,,,
,,,,
,,,,
,,,,
,,,,
,,,,
,,,,
,,,,
,,,,
,,,,
,,,,
,,,,
,,,,
,,,,
,,,,
,,,,
,,,,
,,,,
,,,,
,,,,
,,,,
,,,,
,,,,
,,,,
,,,,
,,,,
,,,,
,,,,
,,,,
,,,,
,,,,
,,,,
,,,,
,,,,
,,,,
,,,,
,,,,
,,,,
,,,,
,,,,
,,,,
,,,,
,,,,
,,,,
,,,,
,,,,
,,,,
,,,,
,,,,
,,,,
,,,,
,,,,
,,,,
,,,,
,,,,
,,,,
,,,,
,,,,
,,,,
,,,,
,,,,
,,,,
,,,,
,,,,
,,,,
,,,,
